temp cl_size size: 10 K: -0.1 
1 99.8476
1.1 99.6176
1.2 99.5218
1.3 98.9048
1.4 98.4624
1.5 97.017
1.6 95.9258
1.7 94.4808
1.8 91.1582
1.9 87.8604
2 84.3832
2.1 77.8456
2.2 68.4058
2.3 58.2384
2.4 45.2594
2.5 35.0148
2.6 27.5006
2.7 20.5282
2.8 15.9796
2.9 13.8176
3 11.3246
3.1 9.2156
3.2 8.2162
3.3 7.4822
3.4 6.6282
3.5 6.1184
3.6 5.6076
3.7 5.0736
3.8 4.7664
3.9 4.6892
4 4.2098
4.1 4.0316
4.2 3.859
4.3 3.62
4.4 3.555
4.5 3.408
4.6 3.2254
4.7 3.1318
4.8 3.0498
4.9 2.8618
5 2.9034
