temp cl_size size: 20 K: -0.1 
1 399.473
1.1 398.877
1.2 397.36
1.3 395.877
1.4 392.534
1.5 388.161
1.6 383.934
1.7 377.819
1.8 363.593
1.9 352.087
2 332.986
2.1 307.549
2.2 255.29
2.3 182.239
2.4 103.211
2.5 55.1064
2.6 35.442
2.7 24.6594
2.8 18.4612
2.9 14.1992
3 11.109
3.1 10.318
3.2 8.456
3.3 7.4276
3.4 6.6834
3.5 5.96
3.6 5.6846
3.7 5.1662
3.8 4.802
3.9 4.5342
4 4.1818
4.1 4.215
4.2 3.723
4.3 3.602
4.4 3.6172
4.5 3.305
4.6 3.2346
4.7 3.1694
4.8 3.1008
4.9 2.9074
5 2.8048
